2500_1
2500_10
2500_100
2500_1000
2500_1002
2500_1003
2500_1004
2500_1005
2500_1006
2500_1007
2500_1008
2500_1009
2500_1010
2500_1011
2500_1012
2500_1013
2500_1014
2500_1015
2500_1016
2500_1017
2500_1018
2500_1019
2500_102
2500_1021
2500_1023
2500_1024
2500_1026
2500_1027
2500_1028
2500_103
2500_1031
2500_1033
2500_1034
2500_1035
2500_1036
2500_1037
2500_1038
2500_1039
2500_104
2500_1041
2500_1042
2500_1043
2500_1044
2500_1045
2500_1046
2500_1047
2500_1048
2500_1049
2500_105
2500_1050
2500_1051
2500_1052
2500_1056
2500_1058
2500_1059
2500_106
2500_1060
2500_1061
2500_1062
2500_1063
2500_1064
2500_1065
2500_1067
2500_1068
2500_1069
2500_1071
2500_1072
2500_1074
2500_1075
2500_1076
2500_1077
2500_1078
2500_1079
2500_108
2500_1080
2500_1081
2500_1082
2500_1083
2500_1086
2500_1087
2500_1088
2500_1090
2500_1093
2500_1094
2500_1095
2500_1096
2500_1097
2500_1098
2500_1099
2500_11
2500_110
2500_1100
2500_1101
2500_1102
2500_1104
2500_1105
2500_1106
2500_1107
2500_1108
2500_1109
2500_111
2500_1110
2500_1111
2500_1112
2500_1113
2500_1114
2500_1115
2500_1116
2500_1117
2500_1118
2500_1119
2500_112
2500_1120
2500_1122
2500_1123
2500_1124
2500_1125
2500_1126
2500_1127
2500_1129
2500_113
2500_1131
2500_1132
2500_1133
2500_1134
2500_1135
2500_1136
2500_1137
2500_1138
2500_1139
2500_114
2500_1140
2500_1141
2500_1142
2500_1143
2500_1144
2500_1145
2500_1146
2500_1147
2500_1148
2500_1149
2500_115
2500_1150
2500_1151
2500_1152
2500_1153
2500_1154
2500_1155
2500_1156
2500_1157
2500_1158
2500_1159
2500_116
2500_1160
2500_1162
2500_1163
2500_1165
2500_1167
2500_1168
2500_1169
2500_117
2500_1170
2500_1172
2500_1173
2500_1174
2500_1175
2500_1177
2500_1178
2500_118
2500_1180
2500_1181
2500_1182
2500_1183
2500_1184
2500_1185
2500_1186
2500_1188
2500_1189
2500_119
2500_1190
2500_1191
2500_1194
2500_1195
2500_1196
2500_1197
2500_1198
2500_1199
2500_120
2500_1200
2500_1201
2500_1202
2500_1203
2500_1204
2500_1205
2500_1206
2500_1207
2500_1209
2500_1210
2500_1212
2500_1213
2500_1214
2500_1215
2500_1216
2500_1219
2500_122
2500_1220
2500_1221
2500_1222
2500_1223
2500_1224
2500_1225
2500_1226
2500_1227
2500_1228
2500_1229
2500_123
2500_1230
2500_1231
2500_1232
2500_1233
2500_1234
2500_1235
2500_1236
2500_1237
2500_1238
2500_1239
2500_124
2500_1240
2500_1241
2500_1242
2500_1243
2500_1245
2500_1247
2500_1248
2500_1249
2500_125
2500_1250
2500_1251
2500_1252
2500_1254
2500_1255
2500_1256
2500_1257
2500_1258
2500_1259
2500_126
2500_1261
2500_1262
2500_1263
2500_1265
2500_1266
2500_1267
2500_1268
2500_1269
2500_127
2500_1270
2500_1272
2500_1273
2500_1274
2500_1275
2500_1276
2500_1277
2500_1278
2500_128
2500_1280
2500_1281
2500_1282
2500_1284
2500_1285
2500_1286
2500_1288
2500_1289
2500_129
2500_1290
2500_1291
2500_1292
2500_1293
2500_1294
2500_1295
2500_1296
2500_1297
2500_1298
2500_1299
2500_13
2500_130
2500_1301
2500_1302
2500_1304
2500_1306
2500_1307
2500_1308
2500_1309
2500_131
2500_1310
2500_1311
2500_1312
2500_1313
2500_1314
2500_1316
2500_1317
2500_1318
2500_1319
2500_132
2500_1320
2500_1322
2500_1323
2500_1324
2500_1325
2500_1326
2500_1327
2500_1328
2500_1329
2500_133
2500_1330
2500_1331
2500_1332
2500_1333
2500_1334
2500_1335
2500_1336
2500_1338
2500_1339
2500_134
2500_1340
2500_1341
2500_1342
2500_1343
2500_1345
2500_1346
2500_1347
2500_1348
2500_1349
2500_135
2500_1350
2500_1351
2500_1352
2500_1353
2500_1355
2500_1356
2500_1358
2500_1359
2500_136
2500_1360
2500_1362
2500_1363
2500_1365
2500_1367
2500_1368
2500_137
2500_1370
2500_1371
2500_1372
2500_1373
2500_1374
2500_1375
2500_1376
2500_1377
2500_1378
2500_1379
2500_138
2500_1380
2500_1383
2500_1384
2500_1385
2500_1386
2500_1388
2500_1389
2500_139
2500_1390
2500_1391
2500_1393
2500_1394
2500_1395
2500_1396
2500_1398
2500_1399
2500_14
2500_140
2500_1400
2500_1401
2500_1402
2500_1403
2500_1404
2500_1405
2500_1406
2500_1407
2500_1408
2500_1409
2500_141
2500_1410
2500_1411
2500_1412
2500_1413
2500_1414
2500_1415
2500_1418
2500_1419
2500_142
2500_1420
2500_1421
2500_1422
2500_1423
2500_1424
2500_1425
2500_1426
2500_1427
2500_1428
2500_1429
2500_143
2500_1430
2500_1431
2500_1432
2500_1433
2500_1434
2500_1435
2500_1437
2500_1438
2500_144
2500_1440
2500_1441
2500_1442
2500_1443
2500_1444
2500_1446
2500_1447
2500_1448
2500_1450
2500_1451
2500_1452
2500_1453
2500_1454
2500_1455
2500_1457
2500_1458
2500_1459
2500_146
2500_1460
2500_1461
2500_1463
2500_1464
2500_1467
2500_1468
2500_1469
2500_147
2500_1470
2500_1471
2500_1472
2500_1473
2500_1474
2500_1475
2500_1476
2500_1477
2500_1478
2500_1479
2500_148
2500_1480
2500_1481
2500_1482
2500_1484
2500_1485
2500_1486
2500_1487
2500_1488
2500_149
2500_1491
2500_1492
2500_1493
2500_1494
2500_1495
2500_1496
2500_1498
2500_15
2500_150
2500_1500
2500_1502
2500_1503
2500_1504
2500_1505
2500_1506
2500_1507
2500_1508
2500_1509
2500_151
2500_1510
2500_1511
2500_1513
2500_1516
2500_1517
2500_1518
2500_1519
2500_1521
2500_1522
2500_1523
2500_1524
2500_1525
2500_1526
2500_1527
2500_1528
2500_1529
2500_153
2500_1530
2500_1531
2500_1532
2500_1533
2500_1534
2500_1535
2500_1537
2500_1538
2500_1539
2500_154
2500_1542
2500_1544
2500_1545
2500_1546
2500_1547
2500_1548
2500_1549
2500_155
2500_1550
2500_1551
2500_1552
2500_1553
2500_1555
2500_1556
2500_1557
2500_1558
2500_1559
2500_156
2500_1560
2500_1561
2500_1562
2500_1563
2500_1564
2500_1565
2500_1566
2500_1567
2500_1568
2500_157
2500_1570
2500_1572
2500_1573
2500_1574
2500_1575
2500_1576
2500_1577
2500_1579
2500_158
2500_1580
2500_1582
2500_1583
2500_1584
2500_1585
2500_1586
2500_1587
2500_1588
2500_1589
2500_159
2500_1591
2500_1593
2500_1595
2500_1596
2500_1597
2500_1598
2500_1599
2500_160
2500_1600
2500_1601
2500_1603
2500_1604
2500_1605
2500_1607
2500_1608
2500_1609
2500_161
2500_1611
2500_1612
2500_1613
2500_1614
2500_1615
2500_1616
2500_1617
2500_1618
2500_1620
2500_1622
2500_1623
2500_1624
2500_1625
2500_1626
2500_1627
2500_1628
2500_1629
2500_163
2500_1630
2500_1631
2500_1632
2500_1633
2500_1635
2500_1636
2500_1638
2500_1640
2500_1641
2500_1642
2500_1643
2500_1644
2500_1645
2500_1646
2500_1647
2500_1649
2500_165
2500_1650
2500_1651
2500_1654
2500_1655
2500_1656
2500_1657
2500_1659
2500_1660
2500_1661
2500_1663
2500_1665
2500_1666
2500_1667
2500_1668
2500_1669
2500_167
2500_1670
2500_1671
2500_1672
2500_1673
2500_1674
2500_1675
2500_1676
2500_1677
2500_1678
2500_1679
2500_168
2500_1680
2500_1681
2500_1682
2500_1683
2500_1684
2500_1685
2500_1686
2500_1688
2500_1689
2500_169
2500_1691
2500_1692
2500_1694
2500_1696
2500_1697
2500_1699
2500_17
2500_170
2500_1701
2500_1702
2500_1703
2500_1704
2500_1705
2500_1706
2500_1707
2500_1708
2500_1709
2500_171
2500_1710
2500_1712
2500_1713
2500_1714
2500_1715
2500_1716
2500_1717
2500_1718
2500_172
2500_1721
2500_1722
2500_1724
2500_1725
2500_1726
2500_1728
2500_1729
2500_1730
2500_1731
2500_1733
2500_1736
2500_1737
2500_1738
2500_1739
2500_174
2500_1740
2500_1741
2500_1742
2500_1743
2500_1744
2500_1745
2500_1746
2500_1747
2500_1748
2500_1749
2500_1750
2500_1751
2500_1752
2500_1754
2500_1755
2500_1756
2500_1757
2500_1759
2500_1760
2500_1761
2500_1762
2500_1763
2500_1764
2500_1765
2500_1767
2500_1769
2500_177
2500_1770
2500_1771
2500_1772
2500_1773
2500_1774
2500_1775
2500_1776
2500_1777
2500_1778
2500_1779
2500_1781
2500_1782
2500_1784
2500_1785
2500_1787
2500_1788
2500_1789
2500_179
2500_1790
2500_1791
2500_1792
2500_1793
2500_1794
2500_1795
2500_1797
2500_1799
2500_18
2500_180
2500_1800
2500_1801
2500_1802
2500_1803
2500_1804
2500_1805
2500_1806
2500_1807
2500_1808
2500_1809
2500_181
2500_1810
2500_1811
2500_1812
2500_1814
2500_1815
2500_1816
2500_1818
2500_1819
2500_182
2500_1820
2500_1821
2500_1823
2500_1824
2500_1825
2500_1826
2500_1827
2500_1828
2500_1829
2500_183
2500_1830
2500_1831
2500_1833
2500_1834
2500_1837
2500_1838
2500_1839
2500_184
2500_1840
2500_1841
2500_1843
2500_1845
2500_1846
2500_1848
2500_1849
2500_185
2500_1850
2500_1851
2500_1852
2500_1853
2500_1854
2500_1855
2500_1856
2500_1857
2500_1858
2500_1859
2500_1860
2500_1861
2500_1862
2500_1863
2500_1864
2500_1865
2500_1866
2500_1867
2500_1868
2500_187
2500_1873
2500_1874
2500_1875
2500_1876
2500_1877
2500_1878
2500_1879
2500_188
2500_1882
2500_1884
2500_1885
2500_1887
2500_1888
2500_1889
2500_189
2500_1890
2500_1891
2500_1892
2500_1894
2500_1895
2500_1896
2500_1897
2500_1898
2500_1899
2500_19
2500_190
2500_1900
2500_1901
2500_1902
2500_1903
2500_1904
2500_1905
2500_1907
2500_1908
2500_1909
2500_191
2500_1910
2500_1911
2500_1912
2500_1913
2500_1915
2500_1916
2500_1917
2500_1918
2500_1919
2500_192
2500_1920
2500_1921
2500_1922
2500_1923
2500_1924
2500_1925
2500_1926
2500_1927
2500_1928
2500_1929
2500_193
2500_1930
2500_1931
2500_1932
2500_1933
2500_1934
2500_1935
2500_1936
2500_1937
2500_1938
2500_1939
2500_194
2500_1940
2500_1941
2500_1942
2500_1943
2500_1944
2500_1945
2500_1947
2500_1948
2500_1949
2500_195
2500_1950
2500_1951
2500_1952
2500_1954
2500_1955
2500_1957
2500_1958
2500_1959
2500_196
2500_1961
2500_1962
2500_1963
2500_1964
2500_1965
2500_1966
2500_1967
2500_1968
2500_1969
2500_1970
2500_1971
2500_1972
2500_1973
2500_1974
2500_1975
2500_1976
2500_1977
2500_1978
2500_1980
2500_1981
2500_1982
2500_1983
2500_1984
2500_1986
2500_1987
2500_1988
2500_1989
2500_199
2500_1990
2500_1992
2500_1993
2500_1994
2500_1997
2500_2
2500_20
2500_200
2500_2000
2500_2001
2500_2002
2500_2003
2500_2004
2500_2005
2500_2007
2500_2008
2500_201
2500_2011
2500_2013
2500_2014
2500_2015
2500_2016
2500_2017
2500_2018
2500_2019
2500_202
2500_2020
2500_2021
2500_2023
2500_2024
2500_2025
2500_2026
2500_2027
2500_2028
2500_203
2500_2030
2500_2031
2500_2032
2500_2033
2500_2037
2500_2038
2500_204
2500_2040
2500_2041
2500_2042
2500_2043
2500_2044
2500_2045
2500_2046
2500_2047
2500_2048
2500_2049
2500_205
2500_2050
2500_2051
2500_2052
2500_2054
2500_2055
2500_2056
2500_2057
2500_2058
2500_2059
2500_206
2500_2060
2500_2061
2500_2062
2500_2063
2500_2064
2500_2065
2500_2066
2500_2067
2500_2068
2500_2069
2500_207
2500_2071
2500_2072
2500_2073
2500_2074
2500_2075
2500_2076
2500_2077
2500_2078
2500_2079
2500_208
2500_2080
2500_2081
2500_2082
2500_2084
2500_2085
2500_2087
2500_2088
2500_2089
2500_209
2500_2090
2500_2091
2500_2092
2500_2093
2500_2094
2500_2095
2500_2096
2500_2098
2500_2099
2500_21
2500_210
2500_2100
2500_2102
2500_2103
2500_2104
2500_2105
2500_2106
2500_2107
2500_2109
2500_2110
2500_2111
2500_2112
2500_2115
2500_2116
2500_2117
2500_2118
2500_2119
2500_212
2500_2120
2500_2122
2500_2124
2500_2125
2500_2126
2500_2127
2500_2128
2500_2129
2500_213
2500_2131
2500_2132
2500_2133
2500_2134
2500_2135
2500_2136
2500_2137
2500_2138
2500_214
2500_2140
2500_2142
2500_2143
2500_2144
2500_2145
2500_2146
2500_2147
2500_2148
2500_215
2500_2150
2500_2151
2500_2152
2500_2153
2500_2154
2500_2155
2500_2158
2500_2159
2500_216
2500_2160
2500_2161
2500_2162
2500_2163
2500_2164
2500_2165
2500_2166
2500_2167
2500_2168
2500_2169
2500_217
2500_2170
2500_2171
2500_2172
2500_2174
2500_2175
2500_2176
2500_2177
2500_2178
2500_2179
2500_218
2500_2180
2500_2181
2500_2182
2500_2183
2500_2184
2500_2186
2500_2187
2500_2188
2500_2189
2500_219
2500_2190
2500_2191
2500_2192
2500_2193
2500_2194
2500_2195
2500_2196
2500_2197
2500_2198
2500_22
2500_220
2500_2200
2500_2201
2500_2203
2500_2204
2500_2205
2500_2206
2500_2207
2500_2208
2500_2209
2500_221
2500_2210
2500_2211
2500_2212
2500_2213
2500_2214
2500_2215
2500_2216
2500_2218
2500_2219
2500_222
2500_2220
2500_2221
2500_2222
2500_2224
2500_2226
2500_2227
2500_2229
2500_223
2500_2230
2500_2231
2500_2232
2500_2234
2500_2235
2500_2236
2500_2237
2500_2238
2500_2239
2500_224
2500_2241
2500_2242
2500_2243
2500_2245
2500_2246
2500_2248
2500_2249
2500_225
2500_2251
2500_2253
2500_2255
2500_2256
2500_2257
2500_2259
2500_226
2500_2260
2500_2261
2500_2262
2500_2263
2500_2265
2500_2267
2500_2268
2500_2269
2500_227
2500_2270
2500_2272
2500_2273
2500_2275
2500_2276
2500_2277
2500_2278
2500_2279
2500_228
2500_2280
2500_2282
2500_2283
2500_2284
2500_2285
2500_2286
2500_2287
2500_2288
2500_2289
2500_229
2500_2290
2500_2291
2500_2292
2500_2294
2500_2295
2500_2296
2500_2297
2500_2298
2500_2299
2500_23
2500_230
2500_2301
2500_2302
2500_2303
2500_2304
2500_2306
2500_2307
2500_2308
2500_2309
2500_231
2500_2310
2500_2311
2500_2312
2500_2313
2500_2314
2500_2315
2500_2316
2500_2317
2500_2318
2500_2319
2500_232
2500_2321
2500_2322
2500_2323
2500_2324
2500_2325
2500_2326
2500_2327
2500_2328
2500_2329
2500_233
2500_2331
2500_2332
2500_2333
2500_2334
2500_2335
2500_2336
2500_2337
2500_2338
2500_234
2500_2342
2500_2344
2500_2345
2500_2346
2500_2347
2500_2348
2500_2349
2500_2350
2500_2351
2500_2352
2500_2353
2500_2354
2500_2355
2500_2356
2500_2357
2500_2358
2500_2359
2500_236
2500_2360
2500_2362
2500_2363
2500_2364
2500_2365
2500_2367
2500_2368
2500_2369
2500_237
2500_2371
2500_2372
2500_2373
2500_2374
2500_2376
2500_2377
2500_2378
2500_2379
2500_2380
2500_2381
2500_2382
2500_2384
2500_2385
2500_2386
2500_2387
2500_2389
2500_239
2500_2390
2500_2391
2500_2392
2500_2394
2500_2395
2500_2396
2500_2397
2500_2398
2500_24
2500_240
2500_2400
2500_2401
2500_2402
2500_2403
2500_2404
2500_2405
2500_2406
2500_2407
2500_2408
2500_2409
2500_241
2500_2410
2500_2411
2500_2412
2500_2414
2500_2415
2500_2416
2500_2418
2500_2419
2500_242
2500_2420
2500_2421
2500_2422
2500_2424
2500_2425
2500_2427
2500_2429
2500_243
2500_2430
2500_2432
2500_2433
2500_2434
2500_2436
2500_2438
2500_2439
2500_244
2500_2440
2500_2441
2500_2442
2500_2443
2500_2444
2500_2445
2500_2446
2500_2448
2500_2449
2500_2451
2500_2452
2500_2453
2500_2454
2500_2455
2500_2456
2500_2457
2500_2458
2500_2459
2500_246
2500_2460
2500_2461
2500_2462
2500_2464
2500_2465
2500_2466
2500_2467
2500_2468
2500_2469
2500_247
2500_2471
2500_2472
2500_2473
2500_2474
2500_2475
2500_2476
2500_248
2500_249
2500_25
2500_250
2500_251
2500_252
2500_253
2500_254
2500_256
2500_257
2500_258
2500_259
2500_260
2500_263
2500_264
2500_266
2500_267
2500_268
2500_269
2500_27
2500_271
2500_272
2500_273
2500_274
2500_275
2500_276
2500_277
2500_278
2500_279
2500_28
2500_280
2500_281
2500_282
2500_283
2500_285
2500_286
2500_287
2500_288
2500_289
2500_29
2500_290
2500_291
2500_292
2500_293
2500_294
2500_295
2500_296
2500_297
2500_298
2500_299
2500_3
2500_30
2500_300
2500_302
2500_303
2500_306
2500_307
2500_308
2500_309
2500_31
2500_310
2500_311
2500_313
2500_314
2500_315
2500_316
2500_317
2500_318
2500_319
2500_32
2500_320
2500_321
2500_323
2500_324
2500_326
2500_327
2500_328
2500_329
2500_33
2500_330
2500_331
2500_332
2500_333
2500_334
2500_335
2500_336
2500_337
2500_339
2500_34
2500_340
2500_341
2500_342
2500_343
2500_344
2500_347
2500_349
2500_35
2500_350
2500_351
2500_352
2500_353
2500_355
2500_357
2500_358
2500_359
2500_36
2500_360
2500_361
2500_362
2500_363
2500_364
2500_365
2500_366
2500_367
2500_368
2500_370
2500_372
2500_374
2500_375
2500_377
2500_378
2500_379
2500_381
2500_382
2500_383
2500_384
2500_386
2500_388
2500_389
2500_39
2500_390
2500_392
2500_393
2500_394
2500_395
2500_396
2500_397
2500_398
2500_399
2500_4
2500_40
2500_400
2500_401
2500_402
2500_403
2500_404
2500_405
2500_406
2500_407
2500_408
2500_41
2500_410
2500_411
2500_412
2500_413
2500_415
2500_416
2500_417
2500_419
2500_42
2500_420
2500_421
2500_422
2500_425
2500_426
2500_427
2500_428
2500_429
2500_43
2500_431
2500_432
2500_433
2500_435
2500_436
2500_437
2500_439
2500_440
2500_442
2500_443
2500_444
2500_445
2500_446
2500_447
2500_448
2500_449
2500_45
2500_450
2500_451
2500_452
2500_453
2500_454
2500_455
2500_456
2500_457
2500_458
2500_459
2500_46
2500_460
2500_461
2500_463
2500_464
2500_465
2500_466
2500_467
2500_468
2500_47
2500_470
2500_471
2500_472
2500_475
2500_476
2500_477
2500_478
2500_479
2500_48
2500_480
2500_481
2500_482
2500_483
2500_484
2500_486
2500_487
2500_488
2500_489
2500_49
2500_490
2500_491
2500_492
2500_493
2500_494
2500_495
2500_496
2500_497
2500_498
2500_5
2500_50
2500_500
2500_501
2500_503
2500_504
2500_505
2500_506
2500_507
2500_508
2500_509
2500_510
2500_511
2500_512
2500_513
2500_514
2500_515
2500_516
2500_519
2500_52
2500_522
2500_523
2500_524
2500_525
2500_526
2500_527
2500_528
2500_529
2500_53
2500_530
2500_531
2500_532
2500_533
2500_535
2500_537
2500_538
2500_539
2500_541
2500_543
2500_544
2500_545
2500_546
2500_547
2500_548
2500_549
2500_55
2500_550
2500_551
2500_552
2500_553
2500_554
2500_555
2500_556
2500_557
2500_558
2500_559
2500_56
2500_560
2500_561
2500_562
2500_563
2500_564
2500_565
2500_566
2500_567
2500_568
2500_569
2500_57
2500_570
2500_571
2500_572
2500_573
2500_574
2500_576
2500_577
2500_578
2500_579
2500_58
2500_582
2500_583
2500_584
2500_585
2500_586
2500_587
2500_588
2500_589
2500_59
2500_590
2500_591
2500_592
2500_593
2500_594
2500_595
2500_596
2500_597
2500_598
2500_599
2500_6
2500_60
2500_600
2500_601
2500_602
2500_603
2500_604
2500_605
2500_606
2500_609
2500_611
2500_612
2500_613
2500_615
2500_618
2500_62
2500_620
2500_621
2500_622
2500_623
2500_624
2500_626
2500_627
2500_628
2500_629
2500_63
2500_630
2500_631
2500_633
2500_634
2500_635
2500_636
2500_637
2500_639
2500_64
2500_640
2500_641
2500_642
2500_643
2500_644
2500_645
2500_646
2500_647
2500_648
2500_649
2500_65
2500_650
2500_651
2500_652
2500_653
2500_654
2500_655
2500_656
2500_657
2500_658
2500_659
2500_66
2500_661
2500_663
2500_664
2500_666
2500_667
2500_669
2500_67
2500_671
2500_672
2500_673
2500_674
2500_675
2500_676
2500_678
2500_679
2500_680
2500_681
2500_682
2500_683
2500_685
2500_686
2500_688
2500_689
2500_69
2500_690
2500_691
2500_692
2500_693
2500_694
2500_696
2500_697
2500_698
2500_699
2500_7
2500_70
2500_700
2500_701
2500_703
2500_704
2500_705
2500_706
2500_707
2500_708
2500_709
2500_71
2500_710
2500_711
2500_712
2500_713
2500_716
2500_717
2500_718
2500_719
2500_72
2500_720
2500_721
2500_722
2500_723
2500_725
2500_726
2500_727
2500_728
2500_729
2500_73
2500_730
2500_731
2500_732
2500_733
2500_734
2500_735
2500_736
2500_737
2500_738
2500_739
2500_74
2500_740
2500_741
2500_742
2500_743
2500_744
2500_745
2500_747
2500_748
2500_749
2500_75
2500_750
2500_751
2500_752
2500_754
2500_755
2500_756
2500_757
2500_760
2500_761
2500_762
2500_763
2500_764
2500_765
2500_766
2500_767
2500_768
2500_769
2500_77
2500_770
2500_771
2500_772
2500_773
2500_774
2500_776
2500_777
2500_778
2500_779
2500_78
2500_780
2500_781
2500_782
2500_785
2500_786
2500_787
2500_788
2500_789
2500_79
2500_790
2500_792
2500_793
2500_794
2500_795
2500_796
2500_797
2500_798
2500_799
2500_8
2500_80
2500_800
2500_801
2500_802
2500_803
2500_804
2500_805
2500_806
2500_808
2500_809
2500_81
2500_810
2500_811
2500_812
2500_813
2500_814
2500_816
2500_817
2500_819
2500_82
2500_820
2500_821
2500_822
2500_823
2500_824
2500_826
2500_828
2500_830
2500_831
2500_832
2500_833
2500_834
2500_835
2500_836
2500_837
2500_838
2500_839
2500_84
2500_840
2500_841
2500_842
2500_843
2500_844
2500_845
2500_846
2500_847
2500_848
2500_849
2500_85
2500_850
2500_851
2500_852
2500_853
2500_854
2500_855
2500_856
2500_857
2500_858
2500_859
2500_86
2500_860
2500_861
2500_863
2500_864
2500_865
2500_866
2500_867
2500_868
2500_869
2500_87
2500_870
2500_871
2500_872
2500_874
2500_875
2500_876
2500_877
2500_878
2500_879
2500_88
2500_880
2500_881
2500_882
2500_883
2500_884
2500_886
2500_887
2500_889
2500_89
2500_890
2500_891
2500_892
2500_893
2500_894
2500_895
2500_896
2500_897
2500_898
2500_901
2500_903
2500_904
2500_905
2500_906
2500_907
2500_908
2500_910
2500_911
2500_912
2500_913
2500_914
2500_915
2500_916
2500_917
2500_918
2500_919
2500_92
2500_920
2500_921
2500_923
2500_924
2500_925
2500_926
2500_927
2500_928
2500_929
2500_93
2500_930
2500_931
2500_932
2500_933
2500_935
2500_936
2500_937
2500_938
2500_939
2500_94
2500_940
2500_941
2500_942
2500_944
2500_945
2500_946
2500_947
2500_949
2500_95
2500_950
2500_951
2500_952
2500_953
2500_954
2500_955
2500_956
2500_957
2500_958
2500_959
2500_96
2500_960
2500_961
2500_962
2500_963
2500_964
2500_965
2500_966
2500_967
2500_969
2500_97
2500_970
2500_972
2500_973
2500_974
2500_975
2500_976
2500_977
2500_978
2500_981
2500_982
2500_983
2500_984
2500_985
2500_987
2500_988
2500_989
2500_99
2500_990
2500_991
2500_992
2500_993
2500_994
2500_995
2500_996
2500_997
2500_999
4565_1
4565_10
4565_100
4565_1000
4565_1001
4565_1002
4565_1003
4565_1004
4565_1005
4565_1006
4565_1007
4565_1008
4565_1009
4565_101
4565_1010
4565_1011
4565_1012
4565_1014
4565_1015
4565_1018
4565_1019
4565_102
4565_1020
4565_1021
4565_1022
4565_1023
4565_1024
4565_1025
4565_1026
4565_1027
4565_1028
4565_1029
4565_103
4565_1030
4565_1031
4565_1032
4565_1033
4565_1034
4565_1035
4565_1036
4565_1037
4565_104
4565_1040
4565_1041
4565_1042
4565_1043
4565_1044
4565_1045
4565_1046
4565_1047
4565_1048
4565_105
4565_1050
4565_1051
4565_1052
4565_1053
4565_1054
4565_1055
4565_1058
4565_1059
4565_106
4565_1060
4565_1061
4565_1062
4565_1063
4565_1065
4565_1066
4565_1067
4565_1068
4565_1069
4565_107
4565_1071
4565_1072
4565_1073
4565_1074
4565_1075
4565_1076
4565_1077
4565_1078
4565_1079
4565_108
4565_1080
4565_1081
4565_1082
4565_1083
4565_1084
4565_1085
4565_1086
4565_1087
4565_1088
4565_1089
4565_109
4565_1090
4565_1091
4565_1092
4565_1094
4565_1095
4565_1098
4565_1099
4565_11
4565_110
4565_1100
4565_1102
4565_1103
4565_1104
4565_1105
4565_1106
4565_1107
4565_1108
4565_1109
4565_111
4565_1112
4565_1113
4565_1114
4565_1115
4565_1116
4565_1117
4565_1118
4565_1119
4565_112
4565_1120
4565_1121
4565_1122
4565_1123
4565_1124
4565_1125
4565_1127
4565_1128
4565_1129
4565_113
4565_1130
4565_1131
4565_1132
4565_1133
4565_1134
4565_1136
4565_1138
4565_1139
4565_114
4565_1140
4565_1141
4565_1142
4565_1143
4565_1144
4565_1145
4565_1146
4565_1147
4565_1148
4565_115
4565_1150
4565_1151
4565_1152
4565_1153
4565_1154
4565_1156
4565_1157
4565_1158
4565_116
4565_1160
4565_1161
4565_1162
4565_1165
4565_1166
4565_1167
4565_1168
4565_1169
4565_117
4565_1171
4565_1172
4565_1174
4565_1175
4565_1176
4565_1177
4565_1178
4565_118
4565_1181
4565_1183
4565_1184
4565_1185
4565_1186
4565_1187
4565_1188
4565_1189
4565_119
4565_1190
4565_1191
4565_1192
4565_1193
4565_1194
4565_1198
4565_1199
4565_12
4565_1200
4565_1201
4565_1202
4565_1203
4565_1204
4565_1205
4565_1206
4565_1207
4565_1208
4565_121
4565_1210
4565_1211
4565_1212
4565_1213
4565_1214
4565_1215
4565_1216
4565_1217
4565_1219
4565_122
4565_1220
4565_1221
4565_1222
4565_1223
4565_1225
4565_1227
4565_1228
4565_1229
4565_123
4565_1230
4565_1231
4565_1232
4565_1233
4565_1234
4565_1235
4565_1236
4565_1237
4565_1238
4565_1239
4565_124
4565_1240
4565_1241
4565_1242
4565_1244
4565_1245
4565_1247
4565_1248
4565_1249
4565_125
4565_1250
4565_1251
4565_1252
4565_1255
4565_1257
4565_1258
4565_1259
4565_126
4565_1260
4565_1262
4565_1264
4565_1265
4565_1266
4565_1268
4565_1270
4565_1272
4565_1273
4565_1274
4565_1275
4565_1276
4565_1277
4565_1278
4565_1279
4565_128
4565_1281
4565_1282
4565_1283
4565_1284
4565_1285
4565_1286
4565_1287
4565_1288
4565_1289
4565_129
4565_1290
4565_1292
4565_1293
4565_1294
4565_1295
4565_1297
4565_1298
4565_1299
4565_13
4565_130
4565_1300
4565_1301
4565_1302
4565_1303
4565_1304
4565_1305
4565_1306
4565_1308
4565_1309
4565_1310
4565_1311
4565_1312
4565_1313
4565_1314
4565_1315
4565_1316
4565_1317
4565_1318
4565_132
4565_1320
4565_1321
4565_1322
4565_1326
4565_1327
4565_1328
4565_133
4565_1330
4565_1331
4565_1333
4565_1334
4565_1335
4565_1336
4565_1337
4565_1338
4565_1339
4565_134
4565_1340
4565_1341
4565_1342
4565_1343
4565_1344
4565_1345
4565_1346
4565_1347
4565_1348
4565_1349
4565_135
4565_1351
4565_1352
4565_1353
4565_1354
4565_1356
4565_1357
4565_1358
4565_1359
4565_1360
4565_1361
4565_1362
4565_1364
4565_1365
4565_1366
4565_1367
4565_1369
4565_137
4565_1371
4565_1372
4565_1373
4565_1374
4565_1376
4565_1377
4565_1379
4565_138
4565_1380
4565_1381
4565_1382
4565_1383
4565_1384
4565_1385
4565_1387
4565_1389
4565_139
4565_1390
4565_1391
4565_1392
4565_1393
4565_1394
4565_1395
4565_1396
4565_1397
4565_14
4565_140
4565_1400
4565_1401
4565_1402
4565_1403
4565_1404
4565_1405
4565_1406
4565_1407
4565_1408
4565_1409
4565_141
4565_1411
4565_1412
4565_1415
4565_1416
4565_1417
4565_1418
4565_1419
4565_142
4565_1420
4565_1421
4565_1422
4565_1423
4565_1424
4565_1428
4565_1429
4565_1430
4565_1431
4565_1432
4565_1433
4565_1434
4565_1435
4565_1436
4565_1437
4565_1438
4565_1439
4565_144
4565_1440
4565_1441
4565_1443
4565_1444
4565_1445
4565_1446
4565_1449
4565_145
4565_1450
4565_1451
4565_1452
4565_1453
4565_1454
4565_1455
4565_1457
4565_1459
4565_146
4565_1461
4565_1462
4565_1463
4565_1464
4565_1465
4565_1466
4565_1467
4565_1468
4565_1469
4565_147
4565_1470
4565_1471
4565_1472
4565_1473
4565_1474
4565_1475
4565_1476
4565_1477
4565_1478
4565_1479
4565_148
4565_1481
4565_1482
4565_1483
4565_1485
4565_1486
4565_1487
4565_1488
4565_1489
4565_1490
4565_1491
4565_1492
4565_1493
4565_1494
4565_1496
4565_1497
4565_1498
4565_15
4565_150
4565_1500
4565_1501
4565_1502
4565_1503
4565_1504
4565_1505
4565_1506
4565_1507
4565_1508
4565_1509
4565_151
4565_1510
4565_1511
4565_1512
4565_1513
4565_1515
4565_1516
4565_1517
4565_1518
4565_1519
4565_152
4565_1520
4565_1521
4565_1522
4565_1523
4565_1524
4565_1525
4565_1526
4565_1527
4565_1528
4565_1529
4565_153
4565_1530
4565_1531
4565_1532
4565_1533
4565_1534
4565_1535
4565_1539
4565_154
4565_1540
4565_1541
4565_1543
4565_1544
4565_1545
4565_1546
4565_1547
4565_1548
4565_1549
4565_155
4565_1550
4565_1551
4565_1552
4565_1554
4565_1555
4565_1556
4565_1557
4565_1558
4565_1559
4565_156
4565_1560
4565_1561
4565_1562
4565_1563
4565_1564
4565_1565
4565_1566
4565_1567
4565_1568
4565_1569
4565_157
4565_1570
4565_1573
4565_1574
4565_1576
4565_1578
4565_158
4565_1580
4565_1582
4565_1583
4565_1584
4565_1585
4565_1586
4565_1587
4565_1591
4565_1593
4565_1594
4565_1595
4565_1596
4565_1597
4565_1598
4565_1599
4565_16
4565_160
4565_1600
4565_1602
4565_1603
4565_1604
4565_1605
4565_1608
4565_1609
4565_161
4565_1610
4565_1611
4565_1612
4565_1613
4565_1614
4565_1615
4565_1616
4565_1617
4565_1618
4565_1619
4565_162
4565_1620
4565_1621
4565_1622
4565_1623
4565_1625
4565_1626
4565_1627
4565_1628
4565_1629
4565_163
4565_1630
4565_1631
4565_1632
4565_1634
4565_1635
4565_1637
4565_1639
4565_164
4565_1640
4565_1641
4565_1642
4565_1644
4565_1645
4565_1646
4565_1647
4565_1649
4565_1650
4565_1651
4565_1652
4565_1653
4565_1654
4565_1656
4565_1657
4565_1658
4565_1659
4565_166
4565_1661
4565_1662
4565_1663
4565_1664
4565_1665
4565_1666
4565_1667
4565_1668
4565_1669
4565_1670
4565_1671
4565_1672
4565_1673
4565_1674
4565_1675
4565_1676
4565_1677
4565_1679
4565_168
4565_1681
4565_1683
4565_1684
4565_1685
4565_1686
4565_1687
4565_1688
4565_169
4565_1690
4565_1691
4565_1692
4565_1694
4565_1695
4565_1697
4565_1698
4565_1699
4565_17
4565_1700
4565_1701
4565_1702
4565_1704
4565_1705
4565_1706
4565_1707
4565_1708
4565_1709
4565_171
4565_1710
4565_1711
4565_1712
4565_1713
4565_1716
4565_1717
4565_1718
4565_1719
4565_172
4565_1720
4565_1722
4565_1723
4565_1724
4565_1726
4565_1727
4565_1729
4565_1732
4565_1733
4565_1734
4565_1735
4565_1736
4565_1737
4565_1738
4565_1739
4565_174
4565_1740
4565_1741
4565_1742
4565_1743
4565_1744
4565_1745
4565_1746
4565_1747
4565_1748
4565_1749
4565_175
4565_1751
4565_1752
4565_1753
4565_1754
4565_1755
4565_1756
4565_1757
4565_1758
4565_1759
4565_176
4565_1760
4565_1761
4565_1762
4565_1763
4565_1764
4565_1765
4565_1766
4565_1767
4565_1768
4565_177
4565_1770
4565_1771
4565_1772
4565_1773
4565_1774
4565_1775
4565_1776
4565_1777
4565_1778
4565_1779
4565_178
4565_1780
4565_1782
4565_1783
4565_1784
4565_1785
4565_1786
4565_1788
4565_1789
4565_179
4565_1790
4565_1791
4565_1792
4565_1793
4565_1794
4565_1795
4565_1796
4565_1797
4565_1798
4565_1799
4565_18
4565_180
4565_1800
4565_1801
4565_1804
4565_1805
4565_1806
4565_1807
4565_1808
4565_1809
4565_181
4565_1810
4565_1812
4565_1813
4565_1814
4565_1816
4565_1817
4565_1818
4565_182
4565_1820
4565_1821
4565_1822
4565_1823
4565_1824
4565_1825
4565_1826
4565_1827
4565_1828
4565_1829
4565_183
4565_1830
4565_1831
4565_1832
4565_1833
4565_1834
4565_1835
4565_1836
4565_1837
4565_1838
4565_1839
4565_1840
4565_1841
4565_1842
4565_1843
4565_1844
4565_1845
4565_1847
4565_1848
4565_1849
4565_185
4565_1850
4565_1851
4565_1852
4565_1853
4565_1854
4565_1857
4565_1858
4565_1859
4565_186
4565_1860
4565_1862
4565_1863
4565_1864
4565_1866
4565_1868
4565_187
4565_1870
4565_1871
4565_1872
4565_1873
4565_1874
4565_1875
4565_1877
4565_1878
4565_1879
4565_188
4565_1880
4565_1881
4565_1882
4565_1883
4565_1884
4565_1885
4565_1886
4565_1887
4565_1888
4565_1889
4565_189
4565_1890
4565_1891
4565_1892
4565_1893
4565_1894
4565_1895
4565_1897
4565_1898
4565_1899
4565_19
4565_190
4565_1900
4565_1901
4565_1902
4565_1903
4565_1904
4565_1905
4565_1906
4565_1907
4565_1908
4565_1909
4565_191
4565_1910
4565_1911
4565_1912
4565_1913
4565_1914
4565_1915
4565_1916
4565_1917
4565_1918
4565_1919
4565_1922
4565_1923
4565_1924
4565_1926
4565_1927
4565_1929
4565_193
4565_1930
4565_1931
4565_1936
4565_1937
4565_1938
4565_194
4565_1941
4565_1942
4565_1943
4565_1945
4565_1946
4565_1947
4565_1948
4565_1949
4565_195
4565_1952
4565_1953
4565_1955
4565_1956
4565_1957
4565_1958
4565_1959
4565_196
4565_1961
4565_1962
4565_1963
4565_1964
4565_1965
4565_1967
4565_1968
4565_1969
4565_197
4565_1970
4565_1971
4565_1972
4565_1973
4565_1974
4565_1975
4565_1976
4565_1977
4565_1978
4565_1979
4565_198
4565_1980
4565_1982
4565_1983
4565_1984
4565_1985
4565_1986
4565_1987
4565_1988
4565_1989
4565_199
4565_1992
4565_1993
4565_1994
4565_1995
4565_1996
4565_1997
4565_1998
4565_1999
4565_2
4565_20
4565_200
4565_2000
4565_2001
4565_2005
4565_2006
4565_2007
4565_2008
4565_2009
4565_201
4565_2010
4565_2011
4565_2012
4565_2013
4565_2014
4565_2015
4565_2016
4565_2017
4565_2018
4565_2019
4565_202
4565_2023
4565_2024
4565_2025
4565_2026
4565_2027
4565_2028
4565_2029
4565_203
4565_2032
4565_2033
4565_2034
4565_2035
4565_2036
4565_2037
4565_2039
4565_204
4565_2040
4565_2041
4565_2042
4565_2043
4565_2044
4565_2045
4565_2047
4565_2048
4565_205
4565_2050
4565_2051
4565_2052
4565_2053
4565_2054
4565_2055
4565_2057
4565_2058
4565_2059
4565_2060
4565_2061
4565_2062
4565_2064
4565_2065
4565_2066
4565_2067
4565_2068
4565_2069
4565_207
4565_2070
4565_2071
4565_2072
4565_2074
4565_2075
4565_2076
4565_2078
4565_2079
4565_208
4565_2080
4565_2081
4565_2082
4565_2083
4565_2084
4565_2085
4565_2086
4565_2087
4565_2088
4565_2089
4565_209
4565_2090
4565_2091
4565_2092
4565_2093
4565_2094
4565_2095
4565_2096
4565_2099
4565_21
4565_210
4565_2100
4565_2102
4565_2104
4565_2105
4565_2106
4565_2107
4565_2108
4565_2109
4565_211
4565_2110
4565_2111
4565_2112
4565_2113
4565_2114
4565_2116
4565_2117
4565_2118
4565_2119
4565_212
4565_2120
4565_2122
4565_2123
4565_2124
4565_2125
4565_2126
4565_2127
4565_2128
4565_2129
4565_2132
4565_2133
4565_2134
4565_2135
4565_2136
4565_2139
4565_2140
4565_2141
4565_2142
4565_2144
4565_2145
4565_2147
4565_2148
4565_215
4565_2151
4565_2152
4565_2153
4565_2154
4565_2155
4565_2156
4565_2157
4565_2158
4565_2159
4565_216
4565_2160
4565_2161
4565_2162
4565_2163
4565_2164
4565_2165
4565_2166
4565_2167
4565_2168
4565_2169
4565_217
4565_2171
4565_2172
4565_2173
4565_2174
4565_2175
4565_2176
4565_2177
4565_2179
4565_218
4565_2181
4565_2182
4565_2183
4565_2184
4565_2185
4565_2186
4565_2187
4565_2189
4565_219
4565_2190
4565_2192
4565_2193
4565_2195
4565_2196
4565_2197
4565_2198
4565_22
4565_220
4565_2200
4565_2201
4565_2202
4565_2203
4565_2204
4565_2205
4565_2208
4565_2209
4565_221
4565_2210
4565_2211
4565_2212
4565_2213
4565_2214
4565_2215
4565_2217
4565_2218
4565_2219
4565_222
4565_2220
4565_2221
4565_2222
4565_2223
4565_2224
4565_2225
4565_2226
4565_2227
4565_2229
4565_223
4565_2230
4565_2231
4565_2232
4565_2233
4565_2235
4565_2236
4565_2237
4565_2238
4565_2239
4565_2240
4565_2241
4565_2242
4565_2243
4565_2244
4565_2245
4565_2246
4565_2247
4565_2248
4565_2249
4565_225
4565_2250
4565_2251
4565_2252
4565_2253
4565_2256
4565_2257
4565_2258
4565_2259
4565_226
4565_2260
4565_2261
4565_2262
4565_2263
4565_2265
4565_2266
4565_2267
4565_2268
4565_2269
4565_2270
4565_2271
4565_2273
4565_2274
4565_2276
4565_2277
4565_2279
4565_228
4565_2280
4565_2282
4565_2283
4565_2285
4565_2286
4565_2287
4565_2288
4565_2289
4565_2290
4565_2291
4565_2292
4565_2293
4565_2294
4565_2295
4565_2296
4565_2297
4565_2299
4565_23
4565_2300
4565_2301
4565_2302
4565_2303
4565_2304
4565_2305
4565_2306
4565_2307
4565_2308
4565_2309
4565_231
4565_2310
4565_2311
4565_2312
4565_2314
4565_2315
4565_2316
4565_2317
4565_2318
4565_2319
4565_232
4565_2320
4565_2321
4565_2322
4565_2323
4565_2325
4565_2327
4565_2328
4565_2329
4565_233
4565_2330
4565_2331
4565_2332
4565_2333
4565_2335
4565_2336
4565_2338
4565_2341
4565_2342
4565_2343
4565_2344
4565_2347
4565_2348
4565_2349
4565_235
4565_2350
4565_2351
4565_2352
4565_2353
4565_2354
4565_2355
4565_2356
4565_2357
4565_2358
4565_2359
4565_236
4565_2360
4565_2361
4565_2362
4565_2363
4565_2364
4565_2367
4565_2368
4565_2369
4565_237
4565_2370
4565_2372
4565_2374
4565_2375
4565_2376
4565_2377
4565_2378
4565_2379
4565_238
4565_2380
4565_2381
4565_2382
4565_2384
4565_2386
4565_2387
4565_2388
4565_2389
4565_239
4565_2390
4565_2391
4565_2392
4565_2393
4565_2394
4565_2396
4565_2397
4565_2398
4565_2399
4565_24
4565_240
4565_2400
4565_2401
4565_2402
4565_2403
4565_2404
4565_2405
4565_2406
4565_2407
4565_2408
4565_2409
4565_241
4565_2410
4565_2411
4565_2413
4565_2415
4565_2416
4565_2417
4565_2419
4565_242
4565_2420
4565_2421
4565_2422
4565_2423
4565_2424
4565_2425
4565_2426
4565_2427
4565_2429
4565_243
4565_2430
4565_2431
4565_2432
4565_2433
4565_2434
4565_2435
4565_2436
4565_2437
4565_2438
4565_2439
4565_244
4565_2441
4565_2442
4565_2443
4565_2445
4565_2446
4565_2448
4565_245
4565_2450
4565_2451
4565_2452
4565_2453
4565_2454
4565_2455
4565_2456
4565_2458
4565_246
4565_2460
4565_2461
4565_2462
4565_2463
4565_2465
4565_2466
4565_2467
4565_2468
4565_2469
4565_247
4565_2470
4565_2471
4565_2472
4565_2473
4565_2474
4565_2475
4565_2476
4565_2477
4565_2478
4565_2479
4565_248
4565_2480
4565_2481
4565_2482
4565_2483
4565_2484
4565_2485
4565_2486
4565_2487
4565_2489
4565_249
4565_2490
4565_2491
4565_2492
4565_2493
4565_2494
4565_2495
4565_2496
4565_2497
4565_2498
4565_2499
4565_25
4565_250
4565_2500
4565_2501
4565_2502
4565_2503
4565_2504
4565_2505
4565_2506
4565_2508
4565_2509
4565_2510
4565_2511
4565_2513
4565_2514
4565_2516
4565_2517
4565_2518
4565_2519
4565_252
4565_2520
4565_2521
4565_2522
4565_2523
4565_2524
4565_2525
4565_2527
4565_2528
4565_2529
4565_253
4565_2530
4565_2531
4565_2532
4565_2533
4565_2534
4565_2535
4565_2536
4565_2537
4565_2538
4565_2539
4565_2540
4565_2541
4565_2542
4565_2543
4565_2544
4565_2545
4565_2546
4565_2547
4565_2548
4565_2549
4565_255
4565_2550
4565_2551
4565_2552
4565_2553
4565_2554
4565_2555
4565_2556
4565_2557
4565_2558
4565_2559
4565_256
4565_2560
4565_2561
4565_2562
4565_2563
4565_2564
4565_2565
4565_2566
4565_2567
4565_2569
4565_257
4565_2571
4565_2572
4565_2573
4565_2574
4565_2575
4565_2576
4565_2579
4565_258
4565_2580
4565_2581
4565_2582
4565_2583
4565_2584
4565_2585
4565_2586
4565_2587
4565_2588
4565_2590
4565_2591
4565_2592
4565_2593
4565_2594
4565_2595
4565_2596
4565_2597
4565_2598
4565_2599
4565_26
4565_260
4565_2600
4565_2601
4565_2603
4565_2604
4565_2605
4565_2606
4565_2607
4565_2608
4565_2609
4565_261
4565_2610
4565_2611
4565_2612
4565_2613
4565_2614
4565_2615
4565_2616
4565_2617
4565_2618
4565_2619
4565_262
4565_2621
4565_2622
4565_2623
4565_2624
4565_2626
4565_2627
4565_2629
4565_2630
4565_2631
4565_2633
4565_2634
4565_2636
4565_2637
4565_2638
4565_2639
4565_264
4565_2640
4565_2641
4565_2642
4565_2643
4565_2644
4565_2645
4565_2646
4565_2647
4565_2648
4565_2649
4565_2651
4565_2652
4565_2653
4565_2654
4565_2655
4565_2656
4565_2657
4565_2658
4565_2659
4565_266
4565_2660
4565_2661
4565_2662
4565_2663
4565_2664
4565_2665
4565_2666
4565_2667
4565_2668
4565_2669
4565_267
4565_2670
4565_2671
4565_2673
4565_2674
4565_2675
4565_2676
4565_2677
4565_2678
4565_268
4565_2680
4565_2681
4565_2682
4565_2683
4565_2684
4565_2687
4565_2688
4565_2689
4565_269
4565_2690
4565_2691
4565_2692
4565_2693
4565_2694
4565_2695
4565_2696
4565_2697
4565_2698
4565_2699
4565_27
4565_270
4565_2700
4565_2701
4565_2702
4565_2703
4565_2704
4565_2705
4565_2706
4565_2707
4565_2708
4565_2709
4565_271
4565_2710
4565_2711
4565_2712
4565_2713
4565_2714
4565_2715
4565_2716
4565_2717
4565_2718
4565_272
4565_2720
4565_2721
4565_2722
4565_2723
4565_2724
4565_2725
4565_2726
4565_2727
4565_2728
4565_2729
4565_2731
4565_2733
4565_2734
4565_2735
4565_2736
4565_2737
4565_2738
4565_274
4565_2740
4565_2741
4565_2742
4565_2745
4565_2746
4565_2747
4565_2748
4565_2749
4565_275
4565_2750
4565_2751
4565_2752
4565_2753
4565_2754
4565_2755
4565_2756
4565_2757
4565_2758
4565_2760
4565_2761
4565_2764
4565_2765
4565_2766
4565_2767
4565_2768
4565_2769
4565_277
4565_2770
4565_2771
4565_2772
4565_2774
4565_2775
4565_2777
4565_2778
4565_2779
4565_278
4565_2780
4565_2781
4565_2782
4565_2783
4565_2784
4565_2785
4565_2786
4565_2787
4565_2788
4565_2789
4565_279
4565_2790
4565_2791
4565_2792
4565_2793
4565_2794
4565_2796
4565_2797
4565_2798
4565_2799
4565_28
4565_280
4565_2800
4565_2801
4565_2802
4565_2803
4565_2805
4565_2806
4565_2807
4565_2808
4565_2809
4565_281
4565_2810
4565_2811
4565_2812
4565_2813
4565_2814
4565_2815
4565_2817
4565_2818
4565_2819
4565_282
4565_2820
4565_2821
4565_2822
4565_2823
4565_2824
4565_2825
4565_2827
4565_2828
4565_2829
4565_283
4565_2830
4565_2831
4565_2832
4565_2833
4565_2834
4565_2835
4565_2836
4565_2837
4565_2838
4565_2839
4565_284
4565_2840
4565_2842
4565_2843
4565_2844
4565_2845
4565_2846
4565_2847
4565_2848
4565_2849
4565_2850
4565_2851
4565_2852
4565_2853
4565_2854
4565_2856
4565_2857
4565_2859
4565_286
4565_2860
4565_2861
4565_2862
4565_2863
4565_2864
4565_2865
4565_2866
4565_2867
4565_2869
4565_287
4565_2870
4565_2871
4565_2872
4565_2874
4565_2875
4565_2877
4565_2878
4565_2879
4565_288
4565_2880
4565_2882
4565_2883
4565_2884
4565_2885
4565_2886
4565_2887
4565_2889
4565_289
4565_2890
4565_2891
4565_2892
4565_2893
4565_2894
4565_2895
4565_2896
4565_2897
4565_290
4565_2900
4565_2901
4565_2902
4565_2903
4565_2904
4565_2906
4565_2907
4565_2909
4565_291
4565_2910
4565_2912
4565_2913
4565_2914
4565_2915
4565_2916
4565_2917
4565_2918
4565_2919
4565_292
4565_2920
4565_2921
4565_2922
4565_2923
4565_2924
4565_2925
4565_2926
4565_2927
4565_2928
4565_2930
4565_2931
4565_2932
4565_2933
4565_2934
4565_2935
4565_2936
4565_2937
4565_2938
4565_2939
4565_294
4565_2940
4565_2941
4565_2942
4565_2943
4565_2945
4565_2946
4565_2947
4565_2948
4565_2949
4565_295
4565_2950
4565_2951
4565_2952
4565_2953
4565_2954
4565_2955
4565_2956
4565_2957
4565_2958
4565_2959
4565_2960
4565_2961
4565_2962
4565_2963
4565_2964
4565_2965
4565_2966
4565_2967
4565_2968
4565_2969
4565_297
4565_2970
4565_2971
4565_2972
4565_2974
4565_2975
4565_2976
4565_2977
4565_2978
4565_2979
4565_298
4565_2980
4565_2981
4565_2982
4565_2983
4565_2985
4565_2986
4565_2987
4565_2988
4565_2989
4565_299
4565_2990
4565_2992
4565_2993
4565_2995
4565_2996
4565_2998
4565_2999
4565_30
4565_300
4565_3000
4565_3001
4565_3002
4565_3003
4565_3005
4565_3006
4565_3007
4565_3008
4565_3009
4565_301
4565_3010
4565_3011
4565_3012
4565_3014
4565_3015
4565_3016
4565_3017
4565_3018
4565_3019
4565_3020
4565_3021
4565_3022
4565_3023
4565_3024
4565_3025
4565_3026
4565_3027
4565_3028
4565_3029
4565_303
4565_3030
4565_3031
4565_3034
4565_3035
4565_3036
4565_3038
4565_3039
4565_304
4565_3040
4565_3041
4565_3042
4565_3043
4565_3044
4565_3045
4565_3046
4565_3047
4565_3048
4565_305
4565_3050
4565_3051
4565_3052
4565_3053
4565_3054
4565_3056
4565_3057
4565_3058
4565_3059
4565_306
4565_3060
4565_3061
4565_3062
4565_3063
4565_3064
4565_3065
4565_3067
4565_3068
4565_3069
4565_307
4565_3070
4565_3071
4565_3072
4565_3073
4565_3074
4565_3075
4565_3076
4565_3077
4565_3078
4565_3079
4565_308
4565_3080
4565_3081
4565_3082
4565_3083
4565_3084
4565_3085
4565_3086
4565_3087
4565_3088
4565_3089
4565_309
4565_3090
4565_3091
4565_3092
4565_3093
4565_3094
4565_3095
4565_3096
4565_3097
4565_3098
4565_31
4565_310
4565_3100
4565_3101
4565_3102
4565_3104
4565_3105
4565_3107
4565_3109
4565_311
4565_3110
4565_3111
4565_3112
4565_3113
4565_3114
4565_3117
4565_3118
4565_3119
4565_312
4565_3120
4565_3121
4565_3122
4565_3123
4565_3124
4565_3126
4565_3127
4565_3129
4565_3130
4565_3131
4565_3132
4565_3133
4565_3134
4565_3135
4565_3136
4565_3137
4565_3138
4565_3139
4565_314
4565_3140
4565_3141
4565_3143
4565_3144
4565_3145
4565_3146
4565_3149
4565_315
4565_3150
4565_3151
4565_3152
4565_3153
4565_3154
4565_3156
4565_3157
4565_3158
4565_3159
4565_316
4565_3160
4565_3163
4565_3165
4565_3166
4565_3167
4565_3168
4565_3169
4565_317
4565_3170
4565_3171
4565_3172
4565_3173
4565_3174
4565_3175
4565_3176
4565_3177
4565_3178
4565_3179
4565_318
4565_3180
4565_3181
4565_3182
4565_3183
4565_3184
4565_3185
4565_3186
4565_3187
4565_3188
4565_319
4565_3190
4565_3191
4565_3192
4565_3193
4565_3194
4565_3195
4565_3196
4565_3197
4565_3198
4565_3199
4565_32
4565_320
4565_3200
4565_3201
4565_3203
4565_3205
4565_3207
4565_3208
4565_3209
4565_3210
4565_3211
4565_3212
4565_3213
4565_3214
4565_3215
4565_3217
4565_3218
4565_3219
4565_322
4565_3220
4565_3221
4565_3222
4565_3223
4565_3224
4565_3225
4565_3226
4565_3227
4565_3228
4565_3229
4565_323
4565_3230
4565_3231
4565_3232
4565_3233
4565_3234
4565_3235
4565_324
4565_3240
4565_3241
4565_3242
4565_3243
4565_3244
4565_3245
4565_3246
4565_3247
4565_3248
4565_3249
4565_325
4565_3250
4565_3252
4565_3253
4565_3254
4565_3256
4565_3257
4565_3258
4565_3259
4565_326
4565_3260
4565_3262
4565_3263
4565_3264
4565_3265
4565_3266
4565_3267
4565_3268
4565_327
4565_3270
4565_3271
4565_3272
4565_3273
4565_3274
4565_3275
4565_3276
4565_3277
4565_3278
4565_3279
4565_328
4565_3280
4565_3281
4565_3283
4565_3284
4565_3285
4565_3286
4565_3287
4565_3288
4565_3289
4565_329
4565_3290
4565_3292
4565_3293
4565_3294
4565_3295
4565_3296
4565_33
4565_330
4565_3300
4565_3301
4565_3302
4565_332
4565_333
4565_334
4565_335
4565_336
4565_337
4565_338
4565_34
4565_340
4565_341
4565_342
4565_343
4565_344
4565_345
4565_346
4565_347
4565_348
4565_349
4565_35
4565_350
4565_351
4565_352
4565_353
4565_354
4565_355
4565_356
4565_357
4565_358
4565_359
4565_36
4565_360
4565_361
4565_362
4565_364
4565_365
4565_367
4565_369
4565_37
4565_370
4565_372
4565_373
4565_374
4565_376
4565_377
4565_378
4565_379
4565_380
4565_381
4565_382
4565_383
4565_384
4565_385
4565_386
4565_387
4565_389
4565_39
4565_390
4565_391
4565_392
4565_393
4565_394
4565_395
4565_396
4565_399
4565_4
4565_400
4565_401
4565_402
4565_404
4565_405
4565_406
4565_407
4565_408
4565_409
4565_41
4565_410
4565_412
4565_413
4565_414
4565_416
4565_417
4565_418
4565_419
4565_420
4565_421
4565_422
4565_423
4565_424
4565_425
4565_427
4565_428
4565_429
4565_43
4565_430
4565_431
4565_432
4565_433
4565_434
4565_435
4565_436
4565_438
4565_44
4565_440
4565_441
4565_442
4565_443
4565_444
4565_445
4565_446
4565_447
4565_448
4565_450
4565_451
4565_452
4565_453
4565_454
4565_456
4565_457
4565_458
4565_459
4565_46
4565_460
4565_461
4565_462
4565_464
4565_465
4565_466
4565_468
4565_469
4565_47
4565_470
4565_472
4565_473
4565_474
4565_475
4565_476
4565_477
4565_478
4565_48
4565_480
4565_481
4565_482
4565_483
4565_484
4565_486
4565_487
4565_488
4565_489
4565_49
4565_490
4565_491
4565_492
4565_493
4565_495
4565_497
4565_498
4565_5
4565_50
4565_500
4565_501
4565_502
4565_503
4565_505
4565_506
4565_507
4565_508
4565_509
4565_51
4565_510
4565_511
4565_512
4565_513
4565_514
4565_515
4565_516
4565_517
4565_518
4565_519
4565_52
4565_520
4565_522
4565_523
4565_524
4565_525
4565_526
4565_527
4565_528
4565_529
4565_53
4565_530
4565_532
4565_533
4565_534
4565_535
4565_536
4565_537
4565_538
4565_539
4565_540
4565_541
4565_542
4565_543
4565_544
4565_545
4565_546
4565_547
4565_548
4565_549
4565_55
4565_551
4565_552
4565_555
4565_556
4565_558
4565_559
4565_560
4565_561
4565_562
4565_563
4565_564
4565_565
4565_566
4565_567
4565_57
4565_570
4565_571
4565_572
4565_573
4565_574
4565_575
4565_576
4565_577
4565_578
4565_579
4565_58
4565_580
4565_581
4565_582
4565_583
4565_584
4565_585
4565_586
4565_587
4565_589
4565_59
4565_590
4565_591
4565_594
4565_596
4565_597
4565_598
4565_599
4565_6
4565_60
4565_600
4565_601
4565_602
4565_603
4565_604
4565_605
4565_606
4565_607
4565_608
4565_609
4565_61
4565_610
4565_611
4565_612
4565_613
4565_614
4565_615
4565_616
4565_617
4565_618
4565_619
4565_62
4565_620
4565_621
4565_622
4565_623
4565_624
4565_625
4565_626
4565_628
4565_629
4565_63
4565_630
4565_631
4565_632
4565_633
4565_634
4565_635
4565_636
4565_637
4565_638
4565_639
4565_64
4565_640
4565_641
4565_642
4565_643
4565_644
4565_645
4565_647
4565_648
4565_649
4565_650
4565_651
4565_652
4565_653
4565_654
4565_655
4565_656
4565_657
4565_658
4565_659
4565_66
4565_660
4565_661
4565_662
4565_663
4565_664
4565_667
4565_669
4565_67
4565_670
4565_671
4565_672
4565_673
4565_674
4565_675
4565_676
4565_677
4565_678
4565_679
4565_68
4565_680
4565_681
4565_683
4565_684
4565_685
4565_687
4565_688
4565_691
4565_692
4565_693
4565_694
4565_695
4565_696
4565_697
4565_698
4565_699
4565_7
4565_70
4565_700
4565_701
4565_702
4565_703
4565_704
4565_705
4565_706
4565_707
4565_708
4565_709
4565_71
4565_710
4565_712
4565_713
4565_714
4565_715
4565_716
4565_718
4565_72
4565_720
4565_721
4565_722
4565_723
4565_724
4565_726
4565_729
4565_73
4565_730
4565_731
4565_732
4565_733
4565_734
4565_735
4565_736
4565_739
4565_74
4565_740
4565_742
4565_743
4565_744
4565_745
4565_746
4565_748
4565_749
4565_75
4565_750
4565_751
4565_752
4565_753
4565_755
4565_756
4565_757
4565_758
4565_76
4565_760
4565_761
4565_762
4565_763
4565_764
4565_765
4565_766
4565_767
4565_768
4565_77
4565_770
4565_771
4565_772
4565_774
4565_775
4565_776
4565_778
4565_779
4565_78
4565_782
4565_784
4565_785
4565_786
4565_787
4565_789
4565_79
4565_790
4565_791
4565_792
4565_793
4565_795
4565_796
4565_797
4565_798
4565_799
4565_8
4565_80
4565_800
4565_801
4565_802
4565_803
4565_804
4565_805
4565_806
4565_808
4565_809
4565_81
4565_810
4565_811
4565_812
4565_813
4565_814
4565_815
4565_816
4565_817
4565_818
4565_819
4565_82
4565_822
4565_823
4565_824
4565_825
4565_826
4565_827
4565_828
4565_829
4565_83
4565_830
4565_831
4565_833
4565_834
4565_835
4565_84
4565_840
4565_841
4565_843
4565_844
4565_845
4565_846
4565_847
4565_849
4565_85
4565_850
4565_851
4565_852
4565_853
4565_855
4565_856
4565_857
4565_858
4565_859
4565_86
4565_860
4565_861
4565_863
4565_865
4565_867
4565_868
4565_869
4565_870
4565_873
4565_875
4565_876
4565_877
4565_878
4565_879
4565_882
4565_883
4565_885
4565_886
4565_887
4565_888
4565_889
4565_89
4565_890
4565_891
4565_892
4565_893
4565_894
4565_895
4565_896
4565_897
4565_898
4565_9
4565_90
4565_900
4565_901
4565_902
4565_903
4565_904
4565_905
4565_907
4565_908
4565_909
4565_91
4565_910
4565_911
4565_912
4565_913
4565_914
4565_917
4565_918
4565_919
4565_92
4565_921
4565_922
4565_923
4565_925
4565_926
4565_927
4565_928
4565_929
4565_931
4565_932
4565_934
4565_935
4565_936
4565_938
4565_939
4565_94
4565_940
4565_941
4565_942
4565_943
4565_944
4565_945
4565_946
4565_947
4565_948
4565_949
4565_95
4565_950
4565_951
4565_952
4565_953
4565_954
4565_955
4565_956
4565_957
4565_958
4565_959
4565_962
4565_963
4565_964
4565_965
4565_966
4565_967
4565_968
4565_969
4565_97
4565_970
4565_971
4565_972
4565_973
4565_975
4565_976
4565_978
4565_979
4565_98
4565_981
4565_982
4565_984
4565_985
4565_986
4565_987
4565_988
4565_989
4565_99
4565_990
4565_991
4565_992
4565_993
4565_994
4565_995
4565_996
4565_997
4565_998
4565_999
997_1
997_10
997_101
997_102
997_103
997_104
997_105
997_106
997_107
997_108
997_109
997_11
997_110
997_112
997_113
997_115
997_116
997_117
997_118
997_119
997_12
997_120
997_121
997_123
997_124
997_125
997_126
997_128
997_129
997_13
997_130
997_131
997_133
997_135
997_136
997_137
997_138
997_139
997_140
997_141
997_143
997_144
997_145
997_146
997_147
997_148
997_149
997_15
997_150
997_151
997_152
997_153
997_154
997_155
997_157
997_158
997_159
997_16
997_160
997_162
997_163
997_164
997_165
997_166
997_167
997_168
997_169
997_17
997_171
997_172
997_173
997_174
997_177
997_178
997_179
997_18
997_180
997_182
997_183
997_184
997_185
997_186
997_187
997_188
997_189
997_19
997_190
997_191
997_192
997_193
997_194
997_195
997_196
997_197
997_2
997_20
997_201
997_202
997_203
997_205
997_206
997_208
997_209
997_21
997_210
997_211
997_212
997_213
997_214
997_215
997_216
997_217
997_218
997_22
997_220
997_221
997_222
997_224
997_225
997_227
997_229
997_231
997_232
997_233
997_234
997_235
997_236
997_237
997_238
997_239
997_240
997_241
997_242
997_243
997_244
997_245
997_246
997_247
997_25
997_250
997_252
997_253
997_254
997_255
997_256
997_257
997_26
997_260
997_262
997_263
997_264
997_265
997_268
997_269
997_27
997_271
997_272
997_273
997_274
997_275
997_276
997_277
997_278
997_28
997_280
997_282
997_283
997_284
997_285
997_286
997_287
997_288
997_289
997_29
997_290
997_291
997_294
997_296
997_297
997_298
997_299
997_30
997_301
997_302
997_303
997_304
997_306
997_307
997_308
997_309
997_31
997_310
997_311
997_313
997_315
997_316
997_317
997_318
997_319
997_32
997_320
997_321
997_322
997_323
997_324
997_325
997_326
997_327
997_328
997_329
997_33
997_330
997_331
997_332
997_333
997_334
997_335
997_336
997_337
997_338
997_339
997_34
997_341
997_343
997_344
997_345
997_346
997_347
997_348
997_349
997_35
997_350
997_351
997_353
997_354
997_355
997_356
997_357
997_358
997_359
997_36
997_360
997_361
997_362
997_363
997_364
997_365
997_366
997_368
997_369
997_37
997_370
997_371
997_372
997_373
997_374
997_375
997_376
997_377
997_378
997_379
997_38
997_380
997_381
997_382
997_384
997_385
997_386
997_388
997_389
997_39
997_390
997_393
997_394
997_395
997_396
997_397
997_398
997_399
997_4
997_400
997_401
997_402
997_403
997_404
997_405
997_407
997_408
997_409
997_41
997_410
997_411
997_412
997_413
997_414
997_415
997_416
997_417
997_418
997_419
997_42
997_420
997_422
997_423
997_424
997_425
997_426
997_428
997_43
997_430
997_431
997_432
997_433
997_434
997_435
997_437
997_439
997_44
997_440
997_441
997_443
997_444
997_445
997_446
997_447
997_449
997_45
997_450
997_451
997_452
997_453
997_454
997_455
997_456
997_457
997_458
997_459
997_461
997_462
997_463
997_464
997_465
997_468
997_469
997_47
997_470
997_471
997_472
997_474
997_475
997_476
997_477
997_478
997_479
997_48
997_481
997_482
997_483
997_484
997_488
997_489
997_490
997_491
997_492
997_493
997_494
997_496
997_5
997_50
997_501
997_502
997_503
997_504
997_507
997_508
997_509
997_510
997_513
997_514
997_516
997_517
997_518
997_519
997_52
997_520
997_521
997_522
997_523
997_524
997_525
997_526
997_527
997_528
997_529
997_53
997_530
997_531
997_532
997_533
997_534
997_535
997_536
997_537
997_538
997_539
997_54
997_540
997_541
997_543
997_544
997_545
997_546
997_547
997_548
997_549
997_55
997_550
997_551
997_552
997_553
997_554
997_556
997_557
997_559
997_56
997_560
997_561
997_562
997_563
997_564
997_565
997_566
997_568
997_57
997_571
997_572
997_573
997_574
997_577
997_578
997_579
997_58
997_580
997_581
997_582
997_583
997_587
997_588
997_589
997_59
997_590
997_591
997_592
997_593
997_594
997_595
997_596
997_597
997_598
997_599
997_6
997_60
997_600
997_601
997_602
997_604
997_605
997_606
997_607
997_609
997_61
997_610
997_611
997_612
997_613
997_615
997_616
997_617
997_618
997_619
997_62
997_620
997_621
997_622
997_624
997_626
997_627
997_628
997_629
997_63
997_630
997_631
997_634
997_635
997_636
997_637
997_638
997_64
997_640
997_641
997_642
997_643
997_644
997_645
997_646
997_647
997_648
997_649
997_650
997_651
997_652
997_655
997_656
997_657
997_658
997_659
997_66
997_660
997_661
997_662
997_663
997_664
997_665
997_666
997_667
997_668
997_671
997_672
997_673
997_674
997_675
997_676
997_677
997_678
997_679
997_68
997_680
997_681
997_682
997_683
997_685
997_686
997_687
997_688
997_689
997_69
997_690
997_691
997_692
997_694
997_696
997_697
997_698
997_699
997_7
997_70
997_701
997_702
997_703
997_704
997_705
997_707
997_708
997_709
997_710
997_712
997_713
997_715
997_716
997_717
997_718
997_719
997_72
997_720
997_721
997_722
997_724
997_725
997_726
997_727
997_728
997_729
997_73
997_730
997_731
997_732
997_733
997_734
997_735
997_736
997_737
997_739
997_74
997_740
997_742
997_743
997_744
997_745
997_746
997_747
997_748
997_749
997_75
997_750
997_751
997_752
997_753
997_754
997_755
997_756
997_757
997_758
997_759
997_76
997_761
997_762
997_763
997_765
997_766
997_768
997_769
997_770
997_771
997_773
997_774
997_775
997_777
997_778
997_779
997_78
997_781
997_782
997_783
997_784
997_785
997_786
997_787
997_789
997_790
997_792
997_793
997_794
997_795
997_796
997_797
997_798
997_799
997_8
997_80
997_800
997_801
997_802
997_803
997_804
997_805
997_806
997_808
997_809
997_81
997_810
997_83
997_85
997_86
997_87
997_88
997_89
997_9
997_90
997_92
997_93
997_94
997_95
997_96
997_97
997_98
997_99
Multi_1
Multi_10
Multi_100
Multi_101
Multi_102
Multi_103
Multi_104
Multi_105
Multi_106
Multi_107
Multi_108
Multi_109
Multi_11
Multi_110
Multi_111
Multi_112
Multi_113
Multi_114
Multi_115
Multi_116
Multi_117
Multi_118
Multi_119
Multi_12
Multi_120
Multi_121
Multi_122
Multi_123
Multi_124
Multi_125
Multi_126
Multi_127
Multi_128
Multi_129
Multi_13
Multi_130
Multi_131
Multi_132
Multi_133
Multi_134
Multi_135
Multi_136
Multi_137
Multi_138
Multi_139
Multi_14
Multi_140
Multi_141
Multi_142
Multi_143
Multi_144
Multi_145
Multi_146
Multi_147
Multi_148
Multi_149
Multi_15
Multi_150
Multi_151
Multi_152
Multi_153
Multi_154
Multi_155
Multi_156
Multi_157
Multi_158
Multi_159
Multi_16
Multi_160
Multi_161
Multi_162
Multi_163
Multi_164
Multi_165
Multi_166
Multi_167
Multi_168
Multi_169
Multi_17
Multi_170
Multi_171
Multi_172
Multi_173
Multi_174
Multi_175
Multi_176
Multi_177
Multi_178
Multi_179
Multi_18
Multi_180
Multi_181
Multi_182
Multi_183
Multi_184
Multi_185
Multi_186
Multi_187
Multi_188
Multi_189
Multi_19
Multi_190
Multi_191
Multi_192
Multi_193
Multi_194
Multi_195
Multi_196
Multi_197
Multi_198
Multi_199
Multi_2
Multi_20
Multi_200
Multi_201
Multi_202
Multi_203
Multi_204
Multi_205
Multi_206
Multi_207
Multi_208
Multi_209
Multi_21
Multi_210
Multi_211
Multi_212
Multi_213
Multi_214
Multi_215
Multi_216
Multi_217
Multi_218
Multi_219
Multi_22
Multi_220
Multi_221
Multi_222
Multi_223
Multi_224
Multi_225
Multi_226
Multi_227
Multi_228
Multi_229
Multi_23
Multi_230
Multi_231
Multi_232
Multi_233
Multi_234
Multi_235
Multi_236
Multi_237
Multi_238
Multi_239
Multi_24
Multi_240
Multi_241
Multi_242
Multi_243
Multi_244
Multi_245
Multi_246
Multi_247
Multi_248
Multi_249
Multi_25
Multi_250
Multi_251
Multi_252
Multi_253
Multi_254
Multi_255
Multi_256
Multi_257
Multi_258
Multi_259
Multi_26
Multi_260
Multi_261
Multi_262
Multi_263
Multi_264
Multi_265
Multi_266
Multi_267
Multi_268
Multi_269
Multi_27
Multi_270
Multi_271
Multi_272
Multi_273
Multi_274
Multi_275
Multi_276
Multi_277
Multi_278
Multi_279
Multi_28
Multi_280
Multi_281
Multi_282
Multi_283
Multi_284
Multi_285
Multi_286
Multi_287
Multi_288
Multi_289
Multi_29
Multi_290
Multi_291
Multi_292
Multi_293
Multi_294
Multi_295
Multi_296
Multi_297
Multi_298
Multi_299
Multi_3
Multi_30
Multi_300
Multi_301
Multi_302
Multi_303
Multi_304
Multi_305
Multi_306
Multi_307
Multi_308
Multi_309
Multi_31
Multi_310
Multi_311
Multi_312
Multi_313
Multi_314
Multi_315
Multi_316
Multi_317
Multi_318
Multi_319
Multi_32
Multi_320
Multi_321
Multi_322
Multi_323
Multi_324
Multi_325
Multi_326
Multi_327
Multi_328
Multi_329
Multi_33
Multi_330
Multi_331
Multi_332
Multi_333
Multi_334
Multi_335
Multi_336
Multi_337
Multi_338
Multi_339
Multi_34
Multi_340
Multi_341
Multi_342
Multi_343
Multi_344
Multi_345
Multi_346
Multi_347
Multi_348
Multi_349
Multi_35
Multi_350
Multi_351
Multi_352
Multi_353
Multi_354
Multi_355
Multi_356
Multi_357
Multi_358
Multi_359
Multi_36
Multi_360
Multi_361
Multi_362
Multi_363
Multi_364
Multi_365
Multi_366
Multi_367
Multi_368
Multi_369
Multi_37
Multi_370
Multi_371
Multi_372
Multi_373
Multi_374
Multi_375
Multi_376
Multi_377
Multi_378
Multi_379
Multi_38
Multi_380
Multi_381
Multi_382
Multi_383
Multi_384
Multi_385
Multi_386
Multi_387
Multi_388
Multi_389
Multi_39
Multi_390
Multi_391
Multi_392
Multi_393
Multi_394
Multi_395
Multi_396
Multi_397
Multi_398
Multi_399
Multi_4
Multi_40
Multi_400
Multi_401
Multi_402
Multi_403
Multi_404
Multi_405
Multi_406
Multi_407
Multi_408
Multi_409
Multi_41
Multi_410
Multi_411
Multi_412
Multi_413
Multi_414
Multi_416
Multi_417
Multi_418
Multi_419
Multi_42
Multi_420
Multi_421
Multi_422
Multi_423
Multi_424
Multi_425
Multi_426
Multi_427
Multi_428
Multi_429
Multi_43
Multi_430
Multi_431
Multi_432
Multi_433
Multi_434
Multi_435
Multi_436
Multi_44
Multi_45
Multi_46
Multi_47
Multi_48
Multi_49
Multi_5
Multi_50
Multi_51
Multi_52
Multi_53
Multi_54
Multi_55
Multi_56
Multi_57
Multi_58
Multi_59
Multi_6
Multi_60
Multi_61
Multi_62
Multi_63
Multi_64
Multi_65
Multi_66
Multi_67
Multi_68
Multi_69
Multi_7
Multi_70
Multi_71
Multi_72
Multi_73
Multi_74
Multi_75
Multi_76
Multi_77
Multi_78
Multi_79
Multi_8
Multi_80
Multi_81
Multi_82
Multi_83
Multi_84
Multi_85
Multi_86
Multi_87
Multi_88
Multi_89
Multi_9
Multi_90
Multi_91
Multi_92
Multi_93
Multi_94
Multi_95
Multi_96
Multi_97
Multi_98
Multi_99
fash_1
fash_10
fash_100
fash_101
fash_102
fash_103
fash_104
fash_105
fash_106
fash_107
fash_108
fash_109
fash_11
fash_110
fash_111
fash_112
fash_113
fash_114
fash_115
fash_116
fash_117
fash_118
fash_119
fash_12
fash_120
fash_121
fash_122
fash_123
fash_124
fash_125
fash_126
fash_127
fash_128
fash_129
fash_13
fash_130
fash_131
fash_132
fash_133
fash_134
fash_135
fash_136
fash_137
fash_138
fash_139
fash_14
fash_140
fash_141
fash_142
fash_143
fash_144
fash_145
fash_146
fash_147
fash_148
fash_149
fash_15
fash_150
fash_151
fash_152
fash_153
fash_154
fash_155
fash_156
fash_157
fash_158
fash_159
fash_16
fash_160
fash_161
fash_162
fash_163
fash_164
fash_165
fash_166
fash_167
fash_168
fash_169
fash_17
fash_170
fash_171
fash_172
fash_173
fash_174
fash_175
fash_176
fash_177
fash_178
fash_179
fash_18
fash_180
fash_181
fash_182
fash_183
fash_184
fash_185
fash_186
fash_187
fash_188
fash_189
fash_19
fash_190
fash_191
fash_192
fash_193
fash_194
fash_195
fash_196
fash_197
fash_198
fash_199
fash_2
fash_20
fash_200
fash_201
fash_202
fash_203
fash_204
fash_205
fash_206
fash_207
fash_208
fash_209
fash_21
fash_210
fash_211
fash_212
fash_213
fash_214
fash_215
fash_216
fash_217
fash_218
fash_219
fash_22
fash_220
fash_221
fash_222
fash_223
fash_224
fash_225
fash_226
fash_227
fash_228
fash_229
fash_23
fash_230
fash_231
fash_232
fash_233
fash_234
fash_235
fash_236
fash_237
fash_238
fash_239
fash_24
fash_240
fash_241
fash_242
fash_243
fash_244
fash_245
fash_246
fash_247
fash_248
fash_249
fash_25
fash_250
fash_251
fash_252
fash_253
fash_254
fash_255
fash_256
fash_257
fash_258
fash_259
fash_26
fash_260
fash_261
fash_262
fash_263
fash_264
fash_265
fash_266
fash_267
fash_268
fash_269
fash_27
fash_270
fash_271
fash_272
fash_273
fash_274
fash_275
fash_276
fash_277
fash_278
fash_279
fash_28
fash_280
fash_281
fash_282
fash_283
fash_284
fash_285
fash_286
fash_287
fash_288
fash_289
fash_29
fash_290
fash_291
fash_292
fash_293
fash_294
fash_295
fash_296
fash_297
fash_298
fash_299
fash_3
fash_30
fash_300
fash_301
fash_302
fash_303
fash_304
fash_305
fash_306
fash_307
fash_308
fash_309
fash_31
fash_310
fash_311
fash_312
fash_313
fash_314
fash_315
fash_316
fash_317
fash_318
fash_319
fash_32
fash_320
fash_321
fash_322
fash_323
fash_324
fash_325
fash_326
fash_327
fash_328
fash_329
fash_33
fash_330
fash_331
fash_332
fash_333
fash_334
fash_335
fash_336
fash_337
fash_338
fash_339
fash_34
fash_340
fash_341
fash_342
fash_343
fash_344
fash_345
fash_346
fash_347
fash_348
fash_349
fash_35
fash_350
fash_351
fash_352
fash_353
fash_354
fash_355
fash_356
fash_357
fash_358
fash_359
fash_36
fash_360
fash_361
fash_362
fash_363
fash_364
fash_365
fash_366
fash_367
fash_368
fash_369
fash_37
fash_370
fash_371
fash_372
fash_373
fash_374
fash_375
fash_376
fash_377
fash_378
fash_379
fash_38
fash_380
fash_381
fash_382
fash_383
fash_384
fash_385
fash_386
fash_387
fash_388
fash_389
fash_39
fash_390
fash_391
fash_392
fash_393
fash_394
fash_395
fash_396
fash_397
fash_398
fash_399
fash_4
fash_40
fash_400
fash_401
fash_402
fash_403
fash_404
fash_405
fash_406
fash_407
fash_408
fash_409
fash_41
fash_410
fash_411
fash_412
fash_413
fash_414
fash_415
fash_416
fash_417
fash_418
fash_419
fash_42
fash_420
fash_421
fash_422
fash_423
fash_424
fash_425
fash_426
fash_427
fash_428
fash_429
fash_43
fash_430
fash_431
fash_432
fash_433
fash_434
fash_435
fash_436
fash_437
fash_438
fash_439
fash_44
fash_440
fash_441
fash_442
fash_443
fash_444
fash_445
fash_446
fash_447
fash_448
fash_449
fash_45
fash_450
fash_451
fash_452
fash_453
fash_454
fash_455
fash_456
fash_457
fash_458
fash_459
fash_46
fash_460
fash_461
fash_462
fash_463
fash_464
fash_465
fash_466
fash_467
fash_468
fash_469
fash_47
fash_470
fash_471
fash_472
fash_473
fash_474
fash_475
fash_476
fash_477
fash_478
fash_479
fash_48
fash_480
fash_481
fash_482
fash_483
fash_484
fash_485
fash_486
fash_487
fash_488
fash_489
fash_49
fash_490
fash_491
fash_492
fash_493
fash_494
fash_495
fash_496
fash_497
fash_498
fash_499
fash_5
fash_50
fash_500
fash_501
fash_502
fash_503
fash_504
fash_505
fash_506
fash_507
fash_508
fash_509
fash_51
fash_510
fash_511
fash_512
fash_513
fash_514
fash_515
fash_516
fash_517
fash_518
fash_519
fash_52
fash_520
fash_521
fash_522
fash_523
fash_524
fash_525
fash_526
fash_527
fash_528
fash_529
fash_53
fash_530
fash_531
fash_532
fash_533
fash_534
fash_535
fash_536
fash_537
fash_538
fash_539
fash_54
fash_540
fash_541
fash_542
fash_543
fash_544
fash_545
fash_546
fash_547
fash_548
fash_549
fash_55
fash_550
fash_551
fash_552
fash_553
fash_554
fash_555
fash_556
fash_557
fash_558
fash_559
fash_56
fash_560
fash_561
fash_562
fash_563
fash_564
fash_565
fash_566
fash_567
fash_568
fash_569
fash_57
fash_570
fash_571
fash_572
fash_573
fash_574
fash_575
fash_576
fash_577
fash_578
fash_579
fash_58
fash_580
fash_581
fash_582
fash_583
fash_584
fash_585
fash_586
fash_587
fash_588
fash_589
fash_59
fash_590
fash_591
fash_592
fash_593
fash_594
fash_595
fash_596
fash_597
fash_598
fash_599
fash_6
fash_60
fash_600
fash_601
fash_602
fash_603
fash_604
fash_605
fash_606
fash_607
fash_608
fash_609
fash_61
fash_610
fash_611
fash_612
fash_613
fash_614
fash_615
fash_616
fash_617
fash_618
fash_619
fash_62
fash_620
fash_621
fash_622
fash_623
fash_624
fash_625
fash_626
fash_627
fash_628
fash_629
fash_63
fash_630
fash_631
fash_632
fash_633
fash_634
fash_635
fash_636
fash_637
fash_638
fash_639
fash_64
fash_640
fash_641
fash_642
fash_643
fash_644
fash_645
fash_646
fash_647
fash_648
fash_649
fash_65
fash_650
fash_651
fash_652
fash_653
fash_654
fash_655
fash_656
fash_657
fash_658
fash_659
fash_66
fash_660
fash_661
fash_662
fash_663
fash_664
fash_665
fash_666
fash_667
fash_668
fash_669
fash_67
fash_670
fash_671
fash_672
fash_673
fash_674
fash_675
fash_676
fash_677
fash_678
fash_679
fash_68
fash_680
fash_681
fash_682
fash_683
fash_684
fash_685
fash_69
fash_7
fash_70
fash_71
fash_72
fash_73
fash_74
fash_75
fash_76
fash_77
fash_78
fash_79
fash_8
fash_80
fash_81
fash_82
fash_83
fash_84
fash_85
fash_86
fash_87
fash_88
fash_89
fash_9
fash_90
fash_91
fash_92
fash_93
fash_94
fash_95
fash_96
fash_97
fash_98
fash_99
